<Actel_Data_File>
    <format name="NVM File" version="01.00.00"/>
    <header>
        <die>
            M2S060T
        </die>
        <family>
            SmartFusion2
        </family>
        <module>
            
        </module>
        <package>
            325 FCSBGA
        </package>
        <version>
            11.8.3.6
        </version>
    </header>
    <nvm>
        <region name="envm" address="0x000000" retrieveAddressFromFile="false" size="15440" format="HEX" type="Data Storage" wordSize="8" numberWords="15440" memFile="C:\Users\bwrc\Desktop\HyperFlexEMG_190405_21Class" memType="" memFileTimeStamp="1554500981" clientType="public" program="true">
            000000000000000000000000000000000000000000000000000000000000
            000000000000000000000000000000000000000000000000000000000000
            000000000000000000000000000000000000000000000000000000000000
            000000000000000000000000000000000000000000000000000000000000
            000000000000000000000000000000000000000000000000000000000000
            000000000000000000000000000000000000000000000000000000000000
            000000000000000000000000000000000000000000000000000000000000
            000000000000000000000000000000000000000000000000000000000000
            000000000000000000000000000000000000000000000000000000000000
            000000000000000000000000000000000000000000000000000000000000
            000000000000000000000000000000000000000000000000000000000000
            000000000000000000000000000000000000000000000000000000000000
            000000000000000000000000000000000000000000000000000000000000
            000000000000000000000000000000000000000000000000000000000000
            000000000000000000000000000000000000000000000000000000000000
            000000000000000000000000000000000000000000000000000000000000
            000000000000000000000000000000000000000000000000000000000000
            000000000000000000000000000000000000000000000000000000000000
            000000000000000000000000000000000000000000000000000000000000
            000000000000000000000000000000000000000000000000000000000000
            000000000000000000000000000000000000000000000000000000000000
            000000000000000000000000000000000000000000000000000000000000
            000000000000000000000000000000000000000000000000000000000000
            000000000000000000000000000000000000000000000000000000000000
            000000000000000000000000000000000000000000000000000000000000
            000000000000000000000000000000000000000000000000000000000000
            000000000000000000000000000000000000000000000000000000000000
            000000000000000000000000000000000000000000000000000000000000
            000000000000000000000000000000000000000000000000000000000000
            000000000000000000000000000000000000000000000000000000000000
            000000000000000000000000000000000000000000000000000000000000
            000000000000000000000000000000000000000000000000000000000000
            000000000000000000000000000000000000000000000000000000000000
            000000000000000000000000000000000000000000000000000000000000
            000000000000000000000000000000000000000000000000000000000000
            000000000000000000000000000000000000000000000000000000000000
            000000000000000000000000000000000000000000000000000000000000
            000000000000000000000000000000000000000000000000000000000000
            000000000000000000000000000000000000000000000000000000000000
            000000000000000000000000000000000000000000000000000000000000
            000000000000000000000000000000000000000000000000000000000000
            000000000000000000000000000000000000000000000000000000000000
            000000000000000000000000000000000000000000000000000000000000
            000000000000000000000000000000000000000000000000000000000000
            000000000000000000000000000000000000000000000000000000000000
            000000000000000000000000000000000000000000000000000000000000
            000000000000000000000000000000000000000000000000000000000000
            000000000000000000000000000000000000000000000000000000000000
            000000000000000000000000000000000000000000000000000000000000
            000000000000000000000000000000000000000000000000000000000000
            000000000000000000000000000000000000000000000000000000000000
            000000000000000000000000000000000000000000000000000000000000
            000000000000000000000000000000000000000000000000000000000000
            000000000000000000000000000000000000000000000000000000000000
            000000000000000000000000000000000000000000000000000000000000
            000000000000000000000000000000000000000000000000000000000000
            000000000000000000000000000000000000000000000000000000000000
            000000000000000000000000000000000000000000000000000000000000
            000000000000000000000000000000000000000000000000000000000000
            000000000000000000000000000000000000000000000000000000000000
            000000000000000000000000000000000000000000000000000000000000
            000000000000000000000000000000000000000000000000000000000000
            000000000000000000000000000000000000000000000000000000000000
            000000000000000000000000000000000000000000000000000000000000
            000000000000000000000000000000000000000000000000000000000000
            000000000000000000000000000000000000000000000000000000000000
            000000000000000000000000000000000000000000000000000000000000
            000000000000000000000000000000000000000000000000000000000000
            000000000000000000000000000000000000000000000000000000000000
            000000000000000000000000000000000000000000000000000000000000
            000000000000000000000000000000000000000000000000000000000000
            000000000000000000000000000000000000000000000000000000000000
            000000000000000000000000000000000000000000000000000000000000
            000000000000000000000000000000000000000000000000000000000000
            000000000000000000000000000000000000000000000000000000000000
            000000000000000000000000000000000000000000000000000000000000
            000000000000000000000000000000000000000000000000000000000000
            000000000000000000000000000000000000000000000000000000000000
            000000000000000000000000000000000000000000000000000000000000
            000000000000000000000000000000000000000000000000000000000000
            000000000000000000000000000000000000000000000000000000000000
            000000000000000000000000000000000000000000000000000000000000
            000000000000000000000000000000000000000000000000000000000000
            000000000000000000000000000000000000000000000000000000000000
            000000000000000000000000000000000000000000000000000000000000
            000000000000000000000000000000000000000000000000000000000000
            000000000000000000000000000000000000000000000000000000000000
            000000000000000000000000000000000000000000000000000000000000
            000000000000000000000000000000000000000000000000000000000000
            000000000000000000000000000000000000000000000000000000000000
            000000000000000000000000000000000000000000000000000000000000
            000000000000000000000000000000000000000000000000000000000000
            000000000000000000000000000000000000000000000000000000000000
            000000000000000000000000000000000000000000000000000000000000
            000000000000000000000000000000000000000000000000000000000000
            000000000000000000000000000000000000000000000000000000000000
            000000000000000000000000000000000000000000000000000000000000
            000000000000000000000000000000000000000000000000000000000000
            000000000000000000000000000000000000000000000000000000000000
            000000000000000000000000000000000000000000000000000000000000
            000000000000000000000000000000000000000000000000000000000000
            000000000000000000000000000000000000000000000000000000000000
            000000000000000000000000000000000000000000000000000000000000
            000000000000000000000000000000000000000000000000000000000000
            000000000000000000000000000000000000000000000000000000000000
            000000000000000000000000000000000000000000000000000000000000
            000000000000000000000000000000000000000000000000000000000000
            000000000000000000000000000000000000000000000000000000000000
            000000000000000000000000000000000000000000000000000000000000
            000000000000000000000000000000000000000000000000000000000000
            000000000000000000000000000000000000000000000000000000000000
            000000000000000000000000000000000000000000000000000000000000
            000000000000000000000000000000000000000000000000000000000000
            000000000000000000000000000000000000000000000000000000000000
            000000000000000000000000000000000000000000000000000000000000
            000000000000000000000000000000000000000000000000000000000000
            000000000000000000000000000000000000000000000000000000000000
            000000000000000000000000000000000000000000000000000000000000
            000000000000000000000000000000000000000000000000000000000000
            000000000000000000000000000000000000000000000000000000000000
            000000000000000000000000000000000000000000000000000000000000
            000000000000000000000000000000000000000000000000000000000000
            000000000000000000000000000000000000000000000000000000000000
            000000000000000000000000000000000000000000000000000000000000
            000000000000000000000000000000000000000000000000000000000000
            000000000000000000000000000000000000000000000000000000000000
            000000000000000000000000000000000000000000000000000000000000
            000000000000000000000000000000000000000000000000000000000000
            000000000000000000000000000000000000000000000000000000000000
            000000000000000000000000000000000000000000000000000000000000
            000000000000000000000000000000000000000000000000000000000000
            000000000000000000000000000000000000000000000000000000000000
            000000000000000000000000000000000000000000000000000000000000
            000000000000000000000000000000000000000000000000000000000000
            000000000000000000000000000000000000000000000000000000000000
            000000000000000000000000000000000000000000000000000000000000
            000000000000000000000000000000000000000000000000000000000000
            000000000000000000000000000000000000000000000000000000000000
            000000000000000000000000000000000000000000000000000000000000
            000000000000000000000000000000000000000000000000000000000000
            000000000000000000000000000000000000000000000000000000000000
            000000000000000000000000000000000000000000000000000000000000
            000000000000000000000000000000000000000000000000000000000000
            000000000000000000000000000000000000000000000000000000000000
            000000000000000000000000000000000000000000000000000000000000
            000000000000000000000000000000000000000000000000000000000000
            000000000000000000000000000000000000000000000000000000000000
            000000000000000000000000000000000000000000000000000000000000
            000000000000000000000000000000000000000000000000000000000000
            000000000000000000000000000000000000000000000000000000000000
            000000000000000000000000000000000000000000000000000000000000
            000000000000000000000000000000000000000000000000000000000000
            000000000000000000000000000000000000000000000000000000000000
            000000000000000000000000000000000000000000000000000000000000
            000000000000000000000000000000000000000000000000000000000000
            000000000000000000000000000000000000000000000000000000000000
            000000000000000000000000000000000000000000000000000000000000
            000000000000000000000000000000000000000000000000000000000000
            000000000000000000000000000000000000000000000000000000000000
            000000000000000000000000000000000000000000000000000000000000
            000000000000000000000000000000000000000000000000000000000000
            000000000000000000000000000000000000000000000000000000000000
            000000000000000000000000000000000000000000000000000000000000
            000000000000000000000000000000000000000000000000000000000000
            000000000000000000000000000000000000000000000000000000000000
            000000000000000000000000000000000000000000000000000000000000
            000000000000000000000000000000000000000000000000000000000000
            000000000000000000000000000000000000000000000000000000000000
            000000000000000000000000000000000000000000000000000000000000
            000000000000000000000000000000000000000000000000000000000000
            000000000000000000000000000000000000000000000000000000000000
            000000000000000000000000000000000000000000000000000000000000
            000000000000000000000000000000000000000000000000000000000000
            000000000000000000000000000000000000000000000000000000000000
            000000000000000000000000000000000000000000000000000000000000
            000000000000000000000000000000000000000000000000000000000000
            000000000000000000000000000000000000000000000000000000000000
            000000000000000000000000000000000000000000000000000000000000
            000000000000000000000000000000000000000000000000000000000000
            000000000000000000000000000000000000000000000000000000000000
            000000000000000000000000000000000000000000000000000000000000
            000000000000000000000000000000000000000000000000000000000000
            000000000000000000000000000000000000000000000000000000000000
            000000000000000000000000000000000000000000000000000000000000
            000000000000000000000000000000000000000000000000000000000000
            000000000000000000000000000000000000000000000000000000000000
            000000000000000000000000000000000000000000000000000000000000
            000000000000000000000000000000000000000000000000000000000000
            000000000000000000000000000000000000000000000000000000000000
            000000000000000000000000000000000000000000000000000000000000
            000000000000000000000000000000000000000000000000000000000000
            000000000000000000000000000000000000000000000000000000000000
            000000000000000000000000000000000000000000000000000000000000
            000000000000000000000000000000000000000000000000000000000000
            000000000000000000000000000000000000000000000000000000000000
            000000000000000000000000000000000000000000000000000000000000
            000000000000000000000000000000000000000000000000000000000000
            000000000000000000000000000000000000000000000000000000000000
            000000000000000000000000000000000000000000000000000000000000
            000000000000000000000000000000000000000000000000000000000000
            000000000000000000000000000000000000000000000000000000000000
            000000000000000000000000000000000000000000000000000000000000
            000000000000000000000000000000000000000000000000000000000000
            000000000000000000000000000000000000000000000000000000000000
            000000000000000000000000000000000000000000000000000000000000
            000000000000000000000000000000000000000000000000000000000000
            000000000000000000000000000000000000000000000000000000000000
            000000000000000000000000000000000000000000000000000000000000
            000000000000000000000000000000000000000000000000000000000000
            000000000000000000000000000000000000000000000000000000000000
            000000000000000000000000000000000000000000000000000000000000
            000000000000000000000000000000000000000000000000000000000000
            000000000000000000000000000000000000000000000000000000000000
            000000000000000000000000000000000000000000000000000000000000
            000000000000000000000000000000000000000000000000000000000000
            000000000000000000000000000000000000000000000000000000000000
            000000000000000000000000000000000000000000000000000000000000
            000000000000000000000000000000000000000000000000000000000000
            000000000000000000000000000000000000000000000000000000000000
            000000000000000000000000000000000000000000000000000000000000
            000000000000000000000000000000000000000000000000000000000000
            000000000000000000000000000000000000000000000000000000000000
            000000000000000000000000000000000000000000000000000000000000
            000000000000000000000000000000000000000000000000000000000000
            000000000000000000000000000000000000000000000000000000000000
            000000000000000000000000000000000000000000000000000000000000
            000000000000000000000000000000000000000000000000000000000000
            000000000000000000000000000000000000000000000000000000000000
            000000000000000000000000000000000000000000000000000000000000
            000000000000000000000000000000000000000000000000000000000000
            000000000000000000000000000000000000000000000000000000000000
            000000000000000000000000000000000000000000000000000000000000
            000000000000000000000000000000000000000000000000000000000000
            000000000000000000000000000000000000000000000000000000000000
            000000000000000000000000000000000000000000000000000000000000
            000000000000000000000000000000000000000000000000000000000000
            000000000000000000000000000000000000000000000000000000000000
            000000000000000000000000000000000000000000000000000000000000
            000000000000000000000000000000000000000000000000000000000000
            000000000000000000000000000000000000000000000000000000000000
            000000000000000000000000000000000000000000000000000000000000
            000000000000000000000000000000000000000000000000000000000000
            000000000000000000000000000000000000000000000000000000000000
            000000000000000000000000000000000000000000000000000000000000
            000000000000000000000000000000000000000000000000000000000000
            000000000000000000000000000000000000000000000000000000000000
            000000000000000000000000000000000000000000000000000000000000
            000000000000000000000000000000000000000000000000000000000000
            000000000000000000000000000000000000000000000000000000000000
            000000000000000000000000000000000000000000000000000000000000
            000000000000000000000000000000000000000000000000000000000000
            000000000000000000000000000000000000000000000000000000000000
            000000000000000000000000000000000000000000000000000000000000
            000000000000000000000000000000000000000000000000000000000000
            000000000000000000000000000000000000000000000000000000000000
            000000000000000000000000000000000000000000000000000000000000
            000000000000000000000000000000000000000000000000000000000000
            000000000000000000000000000000000000000000000000000000000000
            000000000000000000000000000000000000000000000000000000000000
            000000000000000000000000000000000000000000000000000000000000
            000000000000000000000000000000000000000000000000000000000000
            000000000000000000000000000000000000000000000000000000000000
            000000000000000000000000000000000000000000000000000000000000
            000000000000000000000000000000000000000000000000000000000000
            000000000000000000000000000000000000000000000000000000000000
            000000000000000000000000000000000000000000000000000000000000
            000000000000000000000000000000000000000000000000000000000000
            000000000000000000000000000000000000000000000000000000000000
            000000000000000000000000000000000000000000000000000000000000
            000000000000000000000000000000000000000000000000000000000000
            000000000000000000000000000000000000000000000000000000000000
            000000000000000000000000000000000000000000000000000000000000
            000000000000000000000000000000000000000000000000000000000000
            000000000000000000000000000000000000000000000000000000000000
            000000000000000000000000000000000000000000000000000000000000
            000000000000000000000000000000000000000000000000000000000000
            000000000000000000000000000000000000000000000000000000000000
            000000000000000000000000000000000000000000000000000000000000
            000000000000000000000000000000000000000000000000000000000000
            000000000000000000000000000000000000000000000000000000000000
            000000000000000000000000000000000000000000000000000000000000
            000000000000000000000000000000000000000000000000000000000000
            000000000000000000000000000000000000000000000000000000000000
            000000000000000000000000000000000000000000000000000000000000
            000000000000000000000000000000000000000000000000000000000000
            000000000000000000000000000000000000000000000000000000000000
            000000000000000000000000000000000000000000000000000000000000
            000000000000000000000000000000000000000000000000000000000000
            000000000000000000000000000000000000000000000000000000000000
            000000000000000000000000000000000000000000000000000000000000
            000000000000000000000000000000000000000000000000000000000000
            000000000000000000000000000000000000000000000000000000000000
            000000000000000000000000000000000000000000000000000000000000
            000000000000000000000000000000000000000000000000000000000000
            000000000000000000000000000000000000000000000000000000000000
            000000000000000000000000000000000000000000000000000000000000
            000000000000000000000000000000000000000000000000000000000000
            000000000000000000000000000000000000000000000000000000000000
            000000000000000000000000000000000000000000000000000000000000
            000000000000000000000000000000000000000000000000000000000000
            000000000000000000000000000000000000000000000000000000000000
            000000000000000000000000000000000000000000000000000000000000
            000000000000000000000000000000000000000000000000000000000000
            000000000000000000000000000000000000000000000000000000000000
            000000000000000000000000000000000000000000000000000000000000
            000000000000000000000000000000000000000000000000000000000000
            000000000000000000000000000000000000000000000000000000000000
            000000000000000000000000000000000000000000000000000000000000
            000000000000000000000000000000000000000000000000000000000000
            000000000000000000000000000000000000000000000000000000000000
            000000000000000000000000000000000000000000000000000000000000
            000000000000000000000000000000000000000000000000000000000000
            000000000000000000000000000000000000000000000000000000000000
            000000000000000000000000000000000000000000000000000000000000
            000000000000000000000000000000000000000000000000000000000000
            000000000000000000000000000000000000000000000000000000000000
            000000000000000000000000000000000000000000000000000000000000
            000000000000000000000000000000000000000000000000000000000000
            000000000000000000000000000000000000000000000000000000000000
            000000000000000000000000000000000000000000000000000000000000
            000000000000000000000000000000000000000000000000000000000000
            000000000000000000000000000000000000000000000000000000000000
            000000000000000000000000000000000000000000000000000000000000
            000000000000000000000000000000000000000000000000000000000000
            000000000000000000000000000000000000000000000000000000000000
            000000000000000000000000000000000000000000000000000000000000
            000000000000000000000000000000000000000000000000000000000000
            000000000000000000000000000000000000000000000000000000000000
            000000000000000000000000000000000000000000000000000000000000
            000000000000000000000000000000000000000000000000000000000000
            000000000000000000000000000000000000000000000000000000000000
            000000000000000000000000000000000000000000000000000000000000
            000000000000000000000000000000000000000000000000000000000000
            000000000000000000000000000000000000000000000000000000000000
            000000000000000000000000000000000000000000000000000000000000
            000000000000000000000000000000000000000000000000000000000000
            000000000000000000000000000000000000000000000000000000000000
            000000000000000000000000000000000000000000000000000000000000
            000000000000000000000000000000000000000000000000000000000000
            000000000000000000000000000000000000000000000000000000000000
            000000000000000000000000000000000000000000000000000000000000
            000000000000000000000000000000000000000000000000000000000000
            000000000000000000000000000000000000000000000000000000000000
            000000000000000000000000000000000000000000000000000000000000
            000000000000000000000000000000000000000000000000000000000000
            000000000000000000000000000000000000000000000000000000000000
            000000000000000000000000000000000000000000000000000000000000
            000000000000000000000000000000000000000000000000000000000000
            000000000000000000000000000000000000000000000000000000000000
            000000000000000000000000000000000000000000000000000000000000
            000000000000000000000000000000000000000000000000000000000000
            000000000000000000000000000000000000000000000000000000000000
            000000000000000000000000000000000000000000000000000000000000
            000000000000000000000000000000000000000000000000000000000000
            000000000000000000000000000000000000000000000000000000000000
            000000000000000000000000000000000000000000000000000000000000
            000000000000000000000000000000000000000000000000000000000000
            000000000000000000000000000000000000000000000000000000000000
            000000000000000000000000000000000000000000000000000000000000
            000000000000000000000000000000000000000000000000000000000000
            000000000000000000000000000000000000000000000000000000000000
            000000000000000000000000000000000000000000000000000000000000
            000000000000000000000000000000000000000000000000000000000000
            000000000000000000000000000000000000000000000000000000000000
            000000000000000000000000000000000000000000000000000000000000
            000000000000000000000000000000000000000000000000000000000000
            000000000000000000000000000000000000000000000000000000000000
            000000000000000000000000000000000000000000000000000000000000
            000000000000000000000000000000000000000000000000000000000000
            000000000000000000000000000000000000000000000000000000000000
            000000000000000000000000000000000000000000000000000000000000
            000000000000000000000000000000000000000000000000000000000000
            000000000000000000000000000000000000000000000000000000000000
            000000000000000000000000000000000000000000000000000000000000
            000000000000000000000000000000000000000000000000000000000000
            000000000000000000000000000000000000000000000000000000000000
            000000000000000000000000000000000000000000000000000000000000
            000000000000000000000000000000000000000000000000000000000000
            000000000000000000000000000000000000000000000000000000000000
            000000000000000000000000000000000000000000000000000000000000
            000000000000000000000000000000000000000000000000000000000000
            000000000000000000000000000000000000000000000000000000000000
            000000000000000000000000000000000000000000000000000000000000
            000000000000000000000000000000000000000000000000000000000000
            000000000000000000000000000000000000000000000000000000000000
            000000000000000000000000000000000000000000000000000000000000
            000000000000000000000000000000000000000000000000000000000000
            000000000000000000000000000000000000000000000000000000000000
            000000000000000000000000000000000000000000000000000000000000
            000000000000000000000000000000000000000000000000000000000000
            000000000000000000000000000000000000000000000000000000000000
            000000000000000000000000000000000000000000000000000000000000
            000000000000000000000000000000000000000000000000000000000000
            000000000000000000000000000000000000000000000000000000000000
            000000000000000000000000000000000000000000000000000000000000
            000000000000000000000000000000000000000000000000000000000000
            000000000000000000000000000000000000000000000000000000000000
            000000000000000000000000000000000000000000000000000000000000
            000000000000000000000000000000000000000000000000000000000000
            000000000000000000000000000000000000000000000000000000000000
            000000000000000000000000000000000000000000000000000000000000
            000000000000000000000000000000000000000000000000000000000000
            000000000000000000000000000000000000000000000000000000000000
            000000000000000000000000000000000000000000000000000000000000
            000000000000000000000000000000000000000000000000000000000000
            000000000000000000000000000000000000000000000000000000000000
            000000000000000000000000000000000000000000000000000000000000
            000000000000000000000000000000000000000000000000000000000000
            000000000000000000000000000000000000000000000000000000000000
            000000000000000000000000000000000000000000000000000000000000
            000000000000000000000000000000000000000000000000000000000000
            000000000000000000000000000000000000000000000000000000000000
            000000000000000000000000000000000000000000000000000000000000
            000000000000000000000000000000000000000000000000000000000000
            000000000000000000000000000000000000000000000000000000000000
            000000000000000000000000000000000000000000000000000000000000
            000000000000000000000000000000000000000000000000000000000000
            000000000000000000000000000000000000000000000000000000000000
            000000000000000000000000000000000000000000000000000000000000
            000000000000000000000000000000000000000000000000000000000000
            000000000000000000000000000000000000000000000000000000000000
            000000000000000000000000000000000000000000000000000000000000
            000000000000000000000000000000000000000000000000000000000000
            000000000000000000000000000000000000000000000000000000000000
            000000000000000000000000000000000000000000000000000000000000
            000000000000000000000000000000000000000000000000000000000000
            000000000000000000000000000000000000000000000000000000000000
            000000000000000000000000000000000000000000000000000000000000
            000000000000000000000000000000000000000000000000000000000000
            000000000000000000000000000000000000000000000000000000000000
            000000000000000000000000000000000000000000000000000000000000
            000000000000000000000000000000000000000000000000000000000000
            000000000000000000000000000000000000000000000000000000000000
            000000000000000000000000000000000000000000000000000000000000
            000000000000000000000000000000000000000000000000000000000000
            000000000000000000000000000000000000000000000000000000000000
            000000000000000000000000000000000000000000000000000000000000
            000000000000000000000000000000000000000000000000000000000000
            000000000000000000000000000000000000000000000000000000000000
            000000000000000000000000000000000000000000000000000000000000
            000000000000000000000000000000000000000000000000000000000000
            000000000000000000000000000000000000000000000000000000000000
            000000000000000000000000000000000000000000000000000000000000
            000000000000000000000000000000000000000000000000000000000000
            000000000000000000000000000000000000000000000000000000000000
            000000000000000000000000000000000000000000000000000000000000
            000000000000000000000000000000000000000000000000000000000000
            000000000000000000000000000000000000000000000000000000000000
            000000000000000000000000000000000000000000000000000000000000
            000000000000000000000000000000000000000000000000000000000000
            000000000000000000000000000000000000000000000000000000000000
            000000000000000000000000000000000000000000000000000000000000
            000000000000000000000000000000000000000000000000000000000000
            000000000000000000000000000000000000000000000000000000000000
            000000000000000000000000000000000000000000000000000000000000
            000000000000000000000000000000000000000000000000000000000000
            000000000000000000000000000000000000000000000000000000000000
            000000000000000000000000000000000000000000000000000000000000
            000000000000000000000000000000000000000000000000000000000000
            000000000000000000000000000000000000000000000000000000000000
            000000000000000000000000000000000000000000000000000000000000
            000000000000000000000000000000000000000000000000000000000000
            000000000000000000000000000000000000000000000000000000000000
            000000000000000000000000000000000000000000000000000000000000
            000000000000000000000000000000000000000000000000000000000000
            000000000000000000000000000000000000000000000000000000000000
            000000000000000000000000000000000000000000000000000000000000
            000000000000000000000000000000000000000000000000000000000000
            000000000000000000000000000000000000000000000000000000000000
            000000000000000000000000000000000000000000000000000000000000
            000000000000000000000000000000000000000000000000000000000000
            000000000000000000000000000000000000000000000000000000000000
            000000000000000000000000000000000000000000000000000000000000
            000000000000000000000000000000000000000000000000000000000000
            000000000000000000000000000000000000000000000000000000000000
            000000000000000000000000000000000000000000000000000000000000
            000000000000000000000000000000000000000000000000000000000000
            000000000000000000000000000000000000000000000000000000000000
            000000000000000000000000000000000000000000000000000000000000
            000000000000000000000000000000000000000000000000000000000000
            000000000000000000000000000000000000000000000000000000000000
            000000000000000000000000000000000000000000000000000000000000
            000000000000000000000000000000000000000000000000000000000000
            000000000000000000000000000000000000000000000000000000000000
            000000000000000000000000000000000000000000000000000000000000
            000000000000000000000000000000000000000000000000000000000000
            000000000000000000000000000000000000000000000000000000000000
            000000000000000000000000000000000000000000000000000000000000
            000000000000000000000000000000000000000000000000000000000000
            000000000000000000000000000000000000000000000000000000000000
            000000000000000000000000000000000000000000000000000000000000
            000000000000000000000000000000000000000000000000000000000000
            000000000000000000000000000000000000000000000000000000000000
            000000000000000000000000000000000000000000000000000000000000
            000000000000000000000000000000000000000000000000000000000000
            000000000000000000000000000000000000000000000000000000000000
            000000000000000000000000000000000000000000000000000000000000
            000000000000000000000000000000000000000000000000000000000000
            000000000000000000000000000000000000000000000000000000000000
            000000000000000000000000000000000000000000000000000000000000
            000000000000000000000000000000000000000000000000000000000000
            000000000000000000000000000000000000000000000000000000000000
            000000000000000000000000000000000000000000000000000000000000
            000000000000000000000000000000000000000000000000000000000000
            000000000000000000000000000000000000000000000000000000000000
            000000000000000000000000000000000000000000000000000000000000
            000000000000000000000000000000000000000000000000000000000000
            000000000000000000000000000000000000000000000000000000000000
            000000000000000000000000000000000000000000000000000000000000
            000000000000000000000000000000000000000000000000000000000000
            000000000000000000000000000000000000000000000000000000000000
            000000000000000000000000000000000000000000000000000000000000
            000000000000000000000000000000000000000000000000000000000000
            000000000000000000000000000000000000000000000000000000000000
            0000000000000000000000000000000000000000
            <crc>
                0000
            </crc>
        </region>
    </nvm>
</Actel_Data_File>
